x,y,yaw,steeringAngle,velocity,srate
-2,0,0,0.00352781,-20,0.0352781
-4,0,-0.00352782,0.00703448,-20,0.0350667
-5.99999,0.00705563,-0.0105624,0.00890726,-20,0.0187278
-7.99988,0.0281801,-0.0194699,0.0105928,-20,0.0168556
-9.9995,0.0671175,-0.0300631,0.0119242,-20,0.0133142
-11.9986,0.127235,-0.0419879,0.01324,-20,0.0131572
-13.9968,0.211186,-0.0552287,0.0144478,-20,0.0120779
-15.9938,0.321587,-0.0696774,0.0157174,-20,0.0126969
-17.9889,0.460829,-0.0853962,0.0168888,-20,0.0117136
-19.9816,0.631414,-0.102287,0.018239,-20,0.0135019
-21.9712,0.835631,-0.120528,0.0195516,-20,0.0131257
-23.9567,1.0761,-0.140082,0.0208177,-20,0.0126617
-25.9371,1.35535,-0.160902,0.0220352,-20,0.0121744
-27.9113,1.67577,-0.182941,0.0230919,-20,0.0105675
-29.8779,2.03961,-0.206037,0.0241112,-20,0.0101934
-31.8356,2.44878,-0.230153,0.0243341,-20,0.00222859
-33.7828,2.90503,-0.254492,0.0245343,-20,0.00200208
-35.7184,3.40854,-0.279031,0.0253953,-20,0.00861034
-37.6411,3.95939,-0.304432,0.0281952,-20,0.0279984
-39.5491,4.55889,-0.332635,0.0306428,-20,0.0244766
-41.4395,5.21196,-0.363287,0.0323099,-20,0.0166703
-43.3089,5.92266,-0.395608,0.033593,-20,0.0128311
-45.1545,6.6934,-0.429214,0.0345792,-20,0.00986227
-46.9731,7.52571,-0.463807,0.0365602,-20,0.0198103
-48.7618,8.42042,-0.500383,0.0371372,-20,0.00576962
-50.5166,9.37994,-0.537538,0.0374239,-20,0.00286681
-52.2345,10.404,-0.574979,0.0374978,-20,0.000739053
-53.9129,11.4916,-0.612494,0.0373621,-20,-0.00135724
-55.5493,12.6414,-0.649874,0.0365735,-20,-0.00788587
-57.1417,13.8516,-0.686464,0.0352286,-20,-0.0134491
-58.6886,15.1192,-0.721707,0.0332648,-20,-0.0196375
-60.19,16.4406,-0.754984,0.0309829,-20,-0.0228189
-61.6466,17.8111,-0.785977,0.0299434,-20,-0.0103953
-63.06,19.2261,-0.815929,0.028751,-20,-0.0119245
-64.4304,20.6829,-0.844688,0.0274247,-20,-0.0132623
-65.7583,22.1784,-0.87212,0.0259574,-20,-0.0146736
-67.0447,23.7098,-0.898083,0.024347,-20,-0.016104
-68.2909,25.2741,-0.922435,0.0226086,-20,-0.0173836
-69.4987,26.8682,-0.945047,0.0177025,-20,-0.0490609
-70.6701,28.4893,-0.962751,0.0158899,-20,-0.0181263
-71.8126,30.1308,-0.978643,0.0139982,-20,-0.0189173
-72.9289,31.7903,-0.992642,0.0120341,-20,-0.0196412
-74.0219,33.4652,-1.00468,0.0100041,-20,-0.0202996
-75.0946,35.1532,-1.01468,0.00791462,-20,-0.0208947
-76.1504,36.8518,-1.0226,0.00577182,-20,-0.021428
-77.1927,38.5587,-1.02837,0.00358182,-20,-0.0218999
-78.2251,40.2717,-1.03195,0.00135101,-20,-0.0223082
-79.2514,41.9883,-1.0333,-0.000913624,-20,-0.0226463
-80.2754,43.7062,-1.03239,-0.00320386,-20,-0.0229024
-81.3009,45.4233,-1.02918,-0.0043833,-20,-0.0117944
-82.332,47.137,-1.0248,-0.00607575,-20,-0.0169245
-83.3705,48.8463,-1.01872,-0.00763544,-20,-0.0155969
-84.4194,50.5491,-1.01109,-0.00965202,-20,-0.0201658
-85.4813,52.244,-1.00144,-0.0104309,-20,-0.00778884
-86.5595,53.9285,-0.991004,-0.0141655,-20,-0.0373457
-87.6552,55.6016,-0.976838,-0.0146287,-20,-0.0046321
-88.7745,57.2591,-0.962208,-0.0181101,-20,-0.0348142
-89.9179,58.9,-0.944096,-0.0183913,-20,-0.00281183
-91.0908,60.5199,-0.925703,-0.0184088,-20,-0.000175312
-92.2934,62.118,-0.907292,-0.0184251,-20,-0.000163252
-93.5251,63.6937,-0.888865,-0.0184403,-20,-0.000151381
-94.7857,65.2464,-0.870422,-0.0184403,-20,0
-96.0747,66.7756,-0.85198,-0.0184403,-20,0
-97.3917,68.2808,-0.833538,-0.0184403,-20,0
-98.7362,69.7614,-0.815095,-0.0184403,-20,0
-100.108,71.217,-0.796653,-0.0184403,-20,0
-101.506,72.647,-0.778211,-0.0184403,-20,0
-102.93,74.051,-0.759768,-0.0339391,-20,-0.154988
-104.38,75.4285,-0.725816,-0.0388354,-20,-0.048963
-105.876,76.756,-0.686961,-0.0419453,-20,-0.0310986
-107.423,78.0244,-0.644991,-0.043583,-20,-0.0163775
-109.021,79.2268,-0.601381,-0.0439434,-20,-0.00360362
-110.67,80.3584,-0.557409,-0.0431586,-20,0.00784776
-112.367,81.4163,-0.514224,-0.0413371,-20,0.0182151
-114.109,82.4001,-0.472863,-0.0385782,-20,0.0275887
-115.889,83.3109,-0.434266,-0.0349678,-20,0.0361042
-117.703,84.1524,-0.399283,-0.0308802,-20,0.0408762
-119.546,84.9299,-0.368393,-0.0261334,-20,0.0474676
-121.412,85.6502,-0.342254,-0.0207347,-20,0.0539876
-123.296,86.3214,-0.321516,-0.0148059,-20,0.0592878
-125.193,86.9534,-0.306709,-0.00848231,-20,0.0632358
-127.1,87.5573,-0.298227,-0.00191834,-20,0.0656397
-129.012,88.1449,-0.296309,0.00471257,-20,0.0663091
-129.938,88.4277,-0.29859,0.0123771,-9.6834,0.0766456
-130.834,88.7033,-0.30439,0.0193189,-9.37118,0.069418
-131.728,88.9842,-0.313443,0.0256103,-9.37118,0.0629141
-132.54,89.2475,-0.324382,0.0302989,-8.54096,0.0468857
-133.328,89.5124,-0.336973,0.0341833,-8.30855,0.0388441
-134.101,89.7831,-0.350977,0.0375834,-8.1902,0.0340012
-134.87,90.0647,-0.366375,0.0406487,-8.1902,0.0306525
-135.579,90.337,-0.381831,0.043334,-7.60019,0.026853
-136.258,90.6093,-0.397675,0.0453712,-7.30797,0.0203718
-136.892,90.8757,-0.413289,0.0468119,-6.878,0.014407
-137.522,91.1519,-0.429399,0.0480812,-6.878,0.0126934
-138.119,91.4253,-0.445196,0.04932,-6.56598,0.0123877
-138.693,91.6995,-0.460912,0.0504122,-6.36801,0.0109217
-139.246,91.974,-0.476485,0.0513066,-6.17276,0.00894408
-139.728,92.2226,-0.490401,0.0516917,-5.42,0.00385122
-140.206,92.4779,-0.504422,0.0520133,-5.42,0.0032159
-140.68,92.7399,-0.51853,0.0522746,-5.42,0.0026131
-141.14,93.0021,-0.532374,0.0525963,-5.29154,0.00321694
-141.574,93.2578,-0.545634,0.0528327,-5.03758,0.002364
-141.98,93.5045,-0.558204,0.0529531,-4.75432,0.00120452
-142.361,93.7424,-0.570106,0.0530081,-4.49088,0.000549886
-142.721,93.9731,-0.581444,0.0530251,-4.27396,0.00016986
-143.039,94.1818,-0.591529,0.0530264,-3.8,1.28054e-05
-143.354,94.3937,-0.601613,0.0530177,-3.8,-8.69765e-05
-143.667,94.6088,-0.611696,0.0529998,-3.8,-0.000178898
-143.978,94.827,-0.621775,0.0529735,-3.8,-0.000262984
-144.256,95.0256,-0.630817,0.0529019,-3.41034,-0.000716128
-144.543,95.2354,-0.640232,0.0526835,-3.55636,-0.00218337
-144.809,95.4334,-0.64897,0.0524986,-3.31405,-0.00184998
-145.06,95.6242,-0.657269,0.0523236,-3.15858,-0.00174943
-145.306,95.814,-0.665403,0.052116,-3.10649,-0.0020758
-145.544,96.0004,-0.673277,0.0518942,-3.01902,-0.00221826
-145.773,96.1835,-0.680903,0.0516591,-2.93609,-0.00235125
-145.995,96.3633,-0.688287,0.0514115,-2.85619,-0.00247551
-146.21,96.5398,-0.695434,0.0511528,-2.7782,-0.00258687
-146.417,96.7127,-0.702343,0.0508847,-2.69876,-0.00268164
-146.606,96.8731,-0.708664,0.0506839,-2.48234,-0.00200771
-146.789,97.0297,-0.714771,0.0504761,-2.40761,-0.00207829
-146.966,97.1829,-0.720674,0.0502604,-2.33694,-0.00215666
-147.143,97.3386,-0.726608,0.0499582,-2.35938,-0.00302171
-147.313,97.4899,-0.7323,0.0496458,-2.27708,-0.00312428
-147.477,97.6369,-0.737763,0.0493248,-2.19878,-0.00321046
-147.634,97.7798,-0.743008,0.0489951,-2.1249,-0.00329686
-147.785,97.9187,-0.748041,0.0486573,-2.05314,-0.00337742
-147.931,98.0537,-0.752875,0.0483075,-1.98516,-0.00349854
-148.054,98.1695,-0.756966,0.0481346,-1.69251,-0.0017289
-148.173,98.282,-0.760914,0.047959,-1.63919,-0.00175639
-148.288,98.3915,-0.764725,0.0477802,-1.5879,-0.00178715
-148.399,98.4976,-0.768388,0.047599,-1.5322,-0.00181279
-148.504,98.5991,-0.771867,0.0474211,-1.46082,-0.00177831
-148.603,98.6952,-0.775134,0.0472502,-1.37674,-0.001709
-148.695,98.7853,-0.77818,0.0470875,-1.28826,-0.00162697
-148.78,98.8696,-0.781009,0.0469335,-1.20089,-0.00154015
-148.86,98.9484,-0.783638,0.0467879,-1.11931,-0.00145591
-148.934,99.022,-0.78608,0.0466505,-1.04315,-0.00137451
-149.002,99.0908,-0.788349,0.0465209,-0.972078,-0.00129617
-149.066,99.1551,-0.790458,0.0463988,-0.90576,-0.001221
-149.126,99.2152,-0.792421,0.0462827,-0.845923,-0.0011606
-149.196,99.2867,-0.794746,0.0459949,-1.00387,-0.00287802
-149.261,99.3524,-0.796867,0.0457262,-0.921676,-0.00268718
-149.32,99.4129,-0.798802,0.0454766,-0.845415,-0.0024956
-149.374,99.4685,-0.800568,0.0452429,-0.776502,-0.0023369
-149.424,99.5197,-0.802182,0.0450245,-0.712764,-0.00218472
-149.469,99.5667,-0.803655,0.0448206,-0.653779,-0.00203836
-149.511,99.6099,-0.804999,0.0446307,-0.599504,-0.00189944
-149.549,99.6495,-0.806227,0.0444537,-0.549999,-0.00176954
-149.578,99.6806,-0.807185,0.0443623,-0.430679,-0.000913782
-149.611,99.7143,-0.808222,0.0442123,-0.466993,-0.00150023
-149.64,99.7453,-0.80917,0.0440714,-0.428648,-0.00140951
-149.668,99.7738,-0.810037,0.0439388,-0.393295,-0.00132606
-149.693,99.8001,-0.810835,0.0438144,-0.3631,-0.0012435
-149.715,99.8241,-0.811561,0.043697,-0.33089,-0.00117442
-149.736,99.8461,-0.812224,0.0435882,-0.303619,-0.00108803
-149.755,99.8663,-0.812832,0.0434845,-0.27847,-0.00103717
-149.773,99.8849,-0.813388,0.0433856,-0.255528,-0.000988313
-149.789,99.9016,-0.813888,0.0432964,-0.230676,-0.000892086
-149.804,99.9173,-0.814356,0.0432059,-0.216121,-0.000905205
-149.818,99.9323,-0.814803,0.043111,-0.206344,-0.000948769
-149.83,99.9457,-0.815199,0.0430267,-0.183953,-0.000843531
-149.841,99.9568,-0.815527,0.0429736,-0.152356,-0.000530261
-149.851,99.9674,-0.815841,0.0429077,-0.146135,-0.000659549
-149.856,99.9723,-0.815986,0.0429052,-0.0671289,-2.52944e-05
-149.86,99.9769,-0.81612,0.0429028,-0.0624666,-2.35508e-05
-149.864,99.9811,-0.816244,0.0429006,-0.0581275,-2.19263e-05
-149.867,99.9851,-0.81636,0.0428986,-0.0540895,-2.0413e-05
-149.871,99.9887,-0.816469,0.0428967,-0.0503316,-1.90033e-05
-149.874,99.9921,-0.816569,0.0428949,-0.0468345,-1.76903e-05
-149.877,99.9953,-0.816663,0.0428932,-0.0435801,-1.64675e-05
-149.88,99.9983,-0.81675,0.0428917,-0.0405516,-1.53287e-05
-149.882,100.001,-0.816831,0.0428903,-0.0377333,-1.42682e-05
-149.886,100.004,-0.816928,0.0428862,-0.0453986,-4.04421e-05
-149.889,100.008,-0.817047,0.042872,-0.0556747,-0.000141981
-149.892,100.012,-0.817142,0.0428662,-0.0438953,-5.82177e-05
-149.896,100.016,-0.817258,0.0428495,-0.0544367,-0.000166957
-149.9,100.02,-0.817379,0.042828,-0.0561012,-0.0002155
-149.902,100.022,-0.817457,0.0428247,-0.0364399,-3.26525e-05
-149.905,100.025,-0.817523,0.0428219,-0.0311169,-2.78917e-05
-149.907,100.027,-0.817606,0.0428128,-0.0384834,-9.08441e-05
-149.91,100.03,-0.817677,0.0428082,-0.033405,-4.67231e-05
-149.912,100.033,-0.817756,0.0428008,-0.0369195,-7.3526e-05
-149.915,100.036,-0.817855,0.0427842,-0.0458151,-0.000165677
-149.916,100.037,-0.817879,0.0427835,-0.0114392,-7.20447e-06
-149.916,100.037,-0.81789,0.0427835,-0.00504053,-4.18404e-07
-149.917,100.037,-0.817897,0.0427835,-0.00331515,0
-149.917,100.037,-0.817902,0.0427835,-0.0022974,-1.97706e-16
-149.917,100.038,-0.817905,0.0427835,-0.00159209,-1.37014e-16
-149.917,100.038,-0.817908,0.0427835,-0.00110331,0
-149.917,100.038,-0.817909,0.0427835,-0.000764592,0
-149.917,100.038,-0.81791,0.0427835,-0.000529858,-4.56016e-17
-149.917,100.038,-0.817911,0.0427835,-0.000367189,0
-149.917,100.038,-0.817912,0.0427835,-0.00025446,-2.19e-17
-149.917,100.038,-0.817912,0.0427835,-0.000176339,0
-149.917,100.038,-0.817912,0.0427835,-0.000122202,-1.05173e-17
-149.917,100.038,-0.817913,0.0427835,-8.4685e-05,-7.28847e-17
-149.917,100.038,-0.817913,0.0427835,-5.86862e-05,-5.05087e-18
-149.917,100.038,-0.817913,0.0427835,-4.06691e-05,-3.50022e-17
-149.917,100.038,-0.817913,0.0427835,-2.81835e-05,-2.42563e-18
